	Time [s]	Minimum [K]	Maximum [K]	Average [K]	
1	1.e-002	310.15	310.15	310.15	
2	2.e-002	310.15	310.15	310.15	
3	5.e-002	310.15	310.15	310.15	
4	0.14	310.14	310.14	310.14	
5	0.24	310.14	310.14	310.14	
6	0.34	310.14	310.14	310.14	
7	0.44	310.14	310.14	310.14	
8	0.54	310.14	310.14	310.14	
9	0.64	310.14	310.14	310.14	
10	0.74	310.14	310.14	310.14	
11	0.84	310.15	310.15	310.15	
12	0.94	310.15	310.15	310.15	
13	1.04	310.15	310.15	310.15	
14	1.14	310.15	310.15	310.15	
15	1.24	310.15	310.15	310.15	
16	1.34	310.15	310.15	310.15	
17	1.44	310.15	310.15	310.15	
18	1.54	310.15	310.15	310.15	
19	1.64	310.15	310.15	310.15	
20	1.74	310.15	310.15	310.15	
21	1.84	310.15	310.15	310.15	
22	1.94	310.15	310.15	310.15	
23	2.04	310.15	310.15	310.15	
24	2.14	310.15	310.15	310.15	
25	2.24	310.15	310.15	310.15	
26	2.34	310.15	310.15	310.15	
27	2.44	310.15	310.15	310.15	
28	2.54	310.15	310.15	310.15	
29	2.64	310.15	310.15	310.15	
30	2.74	310.15	310.15	310.15	
31	2.84	310.15	310.15	310.15	
32	2.94	310.15	310.15	310.15	
33	3.04	310.15	310.15	310.15	
34	3.14	310.15	310.15	310.15	
35	3.24	310.14	310.14	310.14	
36	3.34	310.14	310.14	310.14	
37	3.44	310.14	310.14	310.14	
38	3.54	310.14	310.14	310.14	
39	3.64	310.14	310.14	310.14	
40	3.74	310.14	310.14	310.14	
41	3.84	310.14	310.14	310.14	
42	3.94	310.14	310.14	310.14	
43	4.04	310.14	310.14	310.14	
44	4.14	310.14	310.14	310.14	
45	4.24	310.14	310.14	310.14	
46	4.34	310.14	310.14	310.14	
47	4.44	310.14	310.14	310.14	
48	4.54	310.13	310.13	310.13	
49	4.64	310.13	310.13	310.13	
50	4.74	310.13	310.13	310.13	
51	4.84	310.13	310.13	310.13	
52	4.94	310.13	310.13	310.13	
53	5.04	310.13	310.13	310.13	
54	5.14	310.13	310.13	310.13	
55	5.24	310.13	310.13	310.13	
56	5.34	310.13	310.13	310.13	
57	5.44	310.13	310.13	310.13	
58	5.54	310.13	310.13	310.13	
59	5.64	310.13	310.13	310.13	
60	5.74	310.13	310.13	310.13	
61	5.84	310.13	310.13	310.13	
62	5.94	310.13	310.13	310.13	
63	6.04	310.13	310.13	310.13	
64	6.14	310.13	310.13	310.13	
65	6.24	310.13	310.13	310.13	
66	6.34	310.12	310.12	310.12	
67	6.44	310.12	310.12	310.12	
68	6.54	310.12	310.12	310.12	
69	6.64	310.12	310.12	310.12	
70	6.74	310.12	310.12	310.12	
71	6.84	310.12	310.12	310.12	
72	6.94	310.12	310.12	310.12	
73	7.04	310.12	310.12	310.12	
74	7.14	310.12	310.12	310.12	
75	7.24	310.12	310.12	310.12	
76	7.34	310.12	310.12	310.12	
77	7.44	310.11	310.11	310.11	
78	7.54	310.11	310.11	310.11	
79	7.64	310.11	310.11	310.11	
80	7.74	310.11	310.11	310.11	
81	7.84	310.11	310.11	310.11	
82	7.94	310.11	310.11	310.11	
83	8.04	310.11	310.11	310.11	
84	8.14	310.1	310.1	310.1	
85	8.24	310.1	310.1	310.1	
86	8.34	310.1	310.1	310.1	
87	8.44	310.1	310.1	310.1	
88	8.54	310.1	310.1	310.1	
89	8.64	310.09	310.09	310.09	
90	8.74	310.09	310.09	310.09	
91	8.84	310.09	310.09	310.09	
92	8.94	310.09	310.09	310.09	
93	9.04	310.09	310.09	310.09	
94	9.14	310.08	310.08	310.08	
95	9.24	310.08	310.08	310.08	
96	9.34	310.08	310.08	310.08	
97	9.44	310.07	310.07	310.07	
98	9.54	310.07	310.07	310.07	
99	9.64	310.07	310.07	310.07	
100	9.74	310.07	310.07	310.07	
101	9.84	310.06	310.06	310.06	
102	9.94	310.06	310.06	310.06	
103	10.04	310.06	310.06	310.06	
104	10.14	310.05	310.05	310.05	
105	10.24	310.05	310.05	310.05	
106	10.34	310.05	310.05	310.05	
107	10.44	310.04	310.04	310.04	
108	10.54	310.04	310.04	310.04	
109	10.64	310.04	310.04	310.04	
110	10.74	310.03	310.03	310.03	
111	10.84	310.03	310.03	310.03	
112	10.94	310.02	310.02	310.02	
113	11.04	310.02	310.02	310.02	
114	11.14	310.02	310.02	310.02	
115	11.24	310.01	310.01	310.01	
116	11.34	310.01	310.01	310.01	
117	11.44	310.	310.	310.	
118	11.54	310.	310.	310.	
119	11.64	309.99	309.99	309.99	
120	11.74	309.99	309.99	309.99	
121	11.84	309.98	309.98	309.98	
122	11.94	309.98	309.98	309.98	
123	12.04	309.97	309.97	309.97	
124	12.14	309.97	309.97	309.97	
125	12.24	309.96	309.96	309.96	
126	12.34	309.96	309.96	309.96	
127	12.44	309.95	309.95	309.95	
128	12.54	309.95	309.95	309.95	
129	12.64	309.94	309.94	309.94	
130	12.74	309.94	309.94	309.94	
131	12.84	309.93	309.93	309.93	
132	12.94	309.93	309.93	309.93	
133	13.04	309.92	309.92	309.92	
134	13.14	309.91	309.91	309.91	
135	13.24	309.91	309.91	309.91	
136	13.34	309.9	309.9	309.9	
137	13.44	309.9	309.9	309.9	
138	13.54	309.89	309.89	309.89	
139	13.64	309.88	309.88	309.88	
140	13.74	309.88	309.88	309.88	
141	13.84	309.87	309.87	309.87	
142	13.94	309.86	309.86	309.86	
143	14.04	309.86	309.86	309.86	
144	14.14	309.85	309.85	309.85	
145	14.24	309.84	309.84	309.84	
146	14.34	309.84	309.84	309.84	
147	14.44	309.83	309.83	309.83	
148	14.54	309.82	309.82	309.82	
149	14.64	309.82	309.82	309.82	
150	14.74	309.81	309.81	309.81	
151	14.84	309.8	309.8	309.8	
152	14.94	309.8	309.8	309.8	
153	15.04	309.79	309.79	309.79	
154	15.14	309.78	309.78	309.78	
155	15.24	309.77	309.77	309.77	
156	15.34	309.77	309.77	309.77	
157	15.44	309.76	309.76	309.76	
158	15.54	309.75	309.75	309.75	
159	15.64	309.74	309.74	309.74	
160	15.74	309.73	309.73	309.73	
161	15.84	309.73	309.73	309.73	
162	15.94	309.72	309.72	309.72	
163	16.04	309.71	309.71	309.71	
164	16.14	309.7	309.7	309.7	
165	16.24	309.69	309.69	309.69	
166	16.34	309.69	309.69	309.69	
167	16.44	309.68	309.68	309.68	
168	16.54	309.67	309.67	309.67	
169	16.64	309.66	309.66	309.66	
170	16.74	309.65	309.65	309.65	
171	16.84	309.64	309.64	309.64	
172	16.94	309.64	309.64	309.64	
173	17.04	309.63	309.63	309.63	
174	17.14	309.62	309.62	309.62	
175	17.24	309.61	309.61	309.61	
176	17.34	309.6	309.6	309.6	
177	17.44	309.59	309.59	309.59	
178	17.54	309.58	309.58	309.58	
179	17.64	309.57	309.57	309.57	
180	17.74	309.57	309.57	309.57	
181	17.84	309.56	309.56	309.56	
182	17.94	309.55	309.55	309.55	
183	18.04	309.54	309.54	309.54	
184	18.14	309.53	309.53	309.53	
185	18.24	309.52	309.52	309.52	
186	18.34	309.51	309.51	309.51	
187	18.44	309.5	309.5	309.5	
188	18.54	309.49	309.49	309.49	
189	18.64	309.48	309.48	309.48	
190	18.74	309.47	309.47	309.47	
191	18.84	309.46	309.46	309.46	
192	18.94	309.45	309.45	309.45	
193	19.04	309.44	309.44	309.44	
194	19.14	309.43	309.43	309.43	
195	19.24	309.42	309.42	309.42	
196	19.34	309.41	309.41	309.41	
197	19.44	309.4	309.4	309.4	
198	19.54	309.39	309.39	309.39	
199	19.64	309.39	309.39	309.39	
200	19.74	309.38	309.38	309.38	
201	19.84	309.37	309.37	309.37	
202	19.94	309.35	309.35	309.35	
203	20.04	309.34	309.34	309.34	
204	20.14	309.33	309.33	309.33	
205	20.24	309.32	309.32	309.32	
206	20.34	309.31	309.31	309.31	
207	20.44	309.3	309.3	309.3	
208	20.54	309.29	309.29	309.29	
209	20.64	309.28	309.28	309.28	
210	20.74	309.27	309.27	309.27	
211	20.84	309.26	309.26	309.26	
212	20.94	309.25	309.25	309.25	
213	21.04	309.24	309.24	309.24	
214	21.14	309.23	309.23	309.23	
215	21.24	309.22	309.22	309.22	
216	21.34	309.21	309.21	309.21	
217	21.44	309.2	309.2	309.2	
218	21.54	309.19	309.19	309.19	
219	21.64	309.18	309.18	309.18	
220	21.74	309.17	309.17	309.17	
221	21.84	309.16	309.16	309.16	
222	21.94	309.15	309.15	309.15	
223	22.04	309.13	309.13	309.13	
224	22.14	309.12	309.12	309.12	
225	22.24	309.11	309.11	309.11	
226	22.34	309.1	309.1	309.1	
227	22.44	309.09	309.09	309.09	
228	22.54	309.08	309.08	309.08	
229	22.64	309.07	309.07	309.07	
230	22.74	309.06	309.06	309.06	
231	22.84	309.05	309.05	309.05	
232	22.94	309.04	309.04	309.04	
233	23.04	309.02	309.02	309.02	
234	23.14	309.01	309.01	309.01	
235	23.24	309.	309.	309.	
236	23.34	308.99	308.99	308.99	
237	23.44	308.98	308.98	308.98	
238	23.54	308.97	308.97	308.97	
239	23.64	308.96	308.96	308.96	
240	23.74	308.94	308.94	308.94	
241	23.84	308.93	308.93	308.93	
242	23.94	308.92	308.92	308.92	
243	24.04	308.91	308.91	308.91	
244	24.14	308.9	308.9	308.9	
245	24.24	308.89	308.89	308.89	
246	24.34	308.88	308.88	308.88	
247	24.44	308.86	308.86	308.86	
248	24.54	308.85	308.85	308.85	
249	24.64	308.84	308.84	308.84	
250	24.74	308.83	308.83	308.83	
251	24.84	308.82	308.82	308.82	
252	24.94	308.81	308.81	308.81	
253	25.04	308.8	308.8	308.8	
254	25.14	308.78	308.78	308.78	
255	25.24	308.77	308.77	308.77	
256	25.34	308.76	308.76	308.76	
257	25.44	308.75	308.75	308.75	
258	25.54	308.74	308.74	308.74	
259	25.64	308.72	308.72	308.72	
260	25.74	308.71	308.71	308.71	
261	25.84	308.7	308.7	308.7	
262	25.94	308.69	308.69	308.69	
263	26.04	308.68	308.68	308.68	
264	26.14	308.67	308.67	308.67	
265	26.24	308.65	308.65	308.65	
266	26.34	308.64	308.64	308.64	
267	26.44	308.63	308.63	308.63	
268	26.54	308.62	308.62	308.62	
269	26.64	308.61	308.61	308.61	
270	26.74	308.59	308.59	308.59	
271	26.84	308.58	308.58	308.58	
272	26.94	308.57	308.57	308.57	
273	27.04	308.56	308.56	308.56	
274	27.14	308.55	308.55	308.55	
275	27.24	308.53	308.53	308.53	
276	27.34	308.52	308.52	308.52	
277	27.44	308.51	308.51	308.51	
278	27.54	308.5	308.5	308.5	
279	27.64	308.49	308.49	308.49	
280	27.74	308.47	308.47	308.47	
281	27.84	308.46	308.46	308.46	
282	27.94	308.45	308.45	308.45	
283	28.04	308.44	308.44	308.44	
284	28.14	308.42	308.42	308.42	
285	28.24	308.41	308.41	308.41	
286	28.34	308.4	308.4	308.4	
287	28.44	308.39	308.39	308.39	
288	28.54	308.38	308.38	308.38	
289	28.64	308.36	308.36	308.36	
290	28.74	308.35	308.35	308.35	
291	28.84	308.34	308.34	308.34	
292	28.94	308.33	308.33	308.33	
293	29.04	308.31	308.31	308.31	
294	29.14	308.3	308.3	308.3	
295	29.24	308.29	308.29	308.29	
296	29.34	308.28	308.28	308.28	
297	29.44	308.26	308.26	308.26	
298	29.54	308.25	308.25	308.25	
299	29.64	308.24	308.24	308.24	
300	29.74	308.23	308.23	308.23	
301	29.84	308.22	308.22	308.22	
302	29.94	308.2	308.2	308.2	
303	30.04	308.19	308.19	308.19	
304	30.14	308.18	308.18	308.18	
305	30.24	308.17	308.17	308.17	
306	30.34	308.15	308.15	308.15	
307	30.44	308.14	308.14	308.14	
308	30.54	308.13	308.13	308.13	
309	30.64	308.12	308.12	308.12	
310	30.74	308.1	308.1	308.1	
311	30.84	308.09	308.09	308.09	
312	30.94	308.08	308.08	308.08	
313	31.04	308.07	308.07	308.07	
314	31.14	308.05	308.05	308.05	
315	31.24	308.04	308.04	308.04	
316	31.34	308.03	308.03	308.03	
317	31.44	308.02	308.02	308.02	
318	31.54	308.	308.	308.	
319	31.64	307.99	307.99	307.99	
320	31.74	307.98	307.98	307.98	
321	31.84	307.97	307.97	307.97	
322	31.94	307.95	307.95	307.95	
323	32.04	307.94	307.94	307.94	
324	32.14	307.93	307.93	307.93	
325	32.24	307.92	307.92	307.92	
326	32.34	307.9	307.9	307.9	
327	32.44	307.89	307.89	307.89	
328	32.54	307.88	307.88	307.88	
329	32.64	307.87	307.87	307.87	
330	32.74	307.85	307.85	307.85	
331	32.84	307.84	307.84	307.84	
332	32.94	307.83	307.83	307.83	
333	33.04	307.82	307.82	307.82	
334	33.14	307.8	307.8	307.8	
335	33.24	307.79	307.79	307.79	
336	33.34	307.78	307.78	307.78	
337	33.44	307.77	307.77	307.77	
338	33.54	307.75	307.75	307.75	
339	33.64	307.74	307.74	307.74	
340	33.74	307.73	307.73	307.73	
341	33.84	307.72	307.72	307.72	
342	33.94	307.7	307.7	307.7	
343	34.04	307.69	307.69	307.69	
344	34.14	307.68	307.68	307.68	
345	34.24	307.67	307.67	307.67	
346	34.34	307.65	307.65	307.65	
347	34.44	307.64	307.64	307.64	
348	34.54	307.63	307.63	307.63	
349	34.64	307.62	307.62	307.62	
350	34.74	307.6	307.6	307.6	
351	34.84	307.59	307.59	307.59	
352	34.94	307.58	307.58	307.58	
353	35.04	307.56	307.56	307.56	
354	35.14	307.55	307.55	307.55	
355	35.24	307.54	307.54	307.54	
356	35.34	307.53	307.53	307.53	
357	35.44	307.51	307.51	307.51	
358	35.54	307.5	307.5	307.5	
359	35.64	307.49	307.49	307.49	
360	35.74	307.48	307.48	307.48	
361	35.84	307.46	307.46	307.46	
362	35.94	307.45	307.45	307.45	
363	36.04	307.44	307.44	307.44	
364	36.14	307.43	307.43	307.43	
365	36.24	307.41	307.41	307.41	
366	36.34	307.4	307.4	307.4	
367	36.44	307.39	307.39	307.39	
368	36.54	307.38	307.38	307.38	
369	36.64	307.36	307.36	307.36	
370	36.74	307.35	307.35	307.35	
371	36.84	307.34	307.34	307.34	
372	36.94	307.33	307.33	307.33	
373	37.04	307.31	307.31	307.31	
374	37.14	307.3	307.3	307.3	
375	37.24	307.29	307.29	307.29	
376	37.34	307.28	307.28	307.28	
377	37.44	307.26	307.26	307.26	
378	37.54	307.25	307.25	307.25	
379	37.64	307.24	307.24	307.24	
380	37.74	307.22	307.22	307.22	
381	37.84	307.21	307.21	307.21	
382	37.94	307.2	307.2	307.2	
383	38.04	307.19	307.19	307.19	
384	38.14	307.17	307.17	307.17	
385	38.24	307.16	307.16	307.16	
386	38.34	307.15	307.15	307.15	
387	38.44	307.14	307.14	307.14	
388	38.54	307.12	307.12	307.12	
389	38.64	307.11	307.11	307.11	
390	38.74	307.1	307.1	307.1	
391	38.84	307.09	307.09	307.09	
392	38.94	307.07	307.07	307.07	
393	39.04	307.06	307.06	307.06	
394	39.14	307.05	307.05	307.05	
395	39.24	307.04	307.04	307.04	
396	39.34	307.02	307.02	307.02	
397	39.44	307.01	307.01	307.01	
398	39.54	307.	307.	307.	
399	39.64	306.99	306.99	306.99	
400	39.74	306.97	306.97	306.97	
401	39.84	306.96	306.96	306.96	
402	39.94	306.95	306.95	306.95	
403	40.04	306.94	306.94	306.94	
404	40.14	306.92	306.92	306.92	
405	40.24	306.91	306.91	306.91	
406	40.34	306.9	306.9	306.9	
407	40.44	306.89	306.89	306.89	
408	40.54	306.87	306.87	306.87	
409	40.64	306.86	306.86	306.86	
410	40.74	306.85	306.85	306.85	
411	40.84	306.84	306.84	306.84	
412	40.94	306.82	306.82	306.82	
413	41.04	306.81	306.81	306.81	
414	41.14	306.8	306.8	306.8	
415	41.24	306.79	306.79	306.79	
416	41.34	306.77	306.77	306.77	
417	41.44	306.76	306.76	306.76	
418	41.54	306.75	306.75	306.75	
419	41.64	306.74	306.74	306.74	
420	41.74	306.72	306.72	306.72	
421	41.84	306.71	306.71	306.71	
422	41.94	306.7	306.7	306.7	
423	42.04	306.69	306.69	306.69	
424	42.14	306.67	306.67	306.67	
425	42.24	306.66	306.66	306.66	
426	42.34	306.65	306.65	306.65	
427	42.44	306.64	306.64	306.64	
428	42.54	306.63	306.63	306.63	
429	42.64	306.61	306.61	306.61	
430	42.74	306.6	306.6	306.6	
431	42.84	306.59	306.59	306.59	
432	42.94	306.58	306.58	306.58	
433	43.04	306.56	306.56	306.56	
434	43.14	306.55	306.55	306.55	
435	43.24	306.54	306.54	306.54	
436	43.34	306.53	306.53	306.53	
437	43.44	306.51	306.51	306.51	
438	43.54	306.5	306.5	306.5	
439	43.64	306.49	306.49	306.49	
440	43.74	306.48	306.48	306.48	
441	43.84	306.46	306.46	306.46	
442	43.94	306.45	306.45	306.45	
443	44.04	306.44	306.44	306.44	
444	44.14	306.43	306.43	306.43	
445	44.24	306.42	306.42	306.42	
446	44.34	306.4	306.4	306.4	
447	44.44	306.39	306.39	306.39	
448	44.54	306.38	306.38	306.38	
449	44.64	306.37	306.37	306.37	
450	44.74	306.35	306.35	306.35	
451	44.84	306.34	306.34	306.34	
452	44.94	306.33	306.33	306.33	
453	45.04	306.32	306.32	306.32	
454	45.14	306.31	306.31	306.31	
455	45.24	306.29	306.29	306.29	
456	45.34	306.28	306.28	306.28	
457	45.44	306.27	306.27	306.27	
458	45.54	306.26	306.26	306.26	
459	45.64	306.24	306.24	306.24	
460	45.74	306.23	306.23	306.23	
461	45.84	306.22	306.22	306.22	
462	45.94	306.21	306.21	306.21	
463	46.04	306.2	306.2	306.2	
464	46.14	306.18	306.18	306.18	
465	46.24	306.17	306.17	306.17	
466	46.34	306.16	306.16	306.16	
467	46.44	306.15	306.15	306.15	
468	46.54	306.13	306.13	306.13	
469	46.64	306.12	306.12	306.12	
470	46.74	306.11	306.11	306.11	
471	46.84	306.1	306.1	306.1	
472	46.94	306.09	306.09	306.09	
473	47.04	306.07	306.07	306.07	
474	47.14	306.06	306.06	306.06	
475	47.24	306.05	306.05	306.05	
476	47.34	306.04	306.04	306.04	
477	47.44	306.03	306.03	306.03	
478	47.54	306.01	306.01	306.01	
479	47.64	306.	306.	306.	
480	47.74	305.99	305.99	305.99	
481	47.84	305.98	305.98	305.98	
482	47.94	305.96	305.96	305.96	
483	48.04	305.95	305.95	305.95	
484	48.14	305.94	305.94	305.94	
485	48.24	305.93	305.93	305.93	
486	48.34	305.92	305.92	305.92	
487	48.44	305.9	305.9	305.9	
488	48.54	305.89	305.89	305.89	
489	48.64	305.88	305.88	305.88	
490	48.74	305.87	305.87	305.87	
491	48.84	305.86	305.86	305.86	
492	48.94	305.84	305.84	305.84	
493	49.04	305.83	305.83	305.83	
494	49.14	305.82	305.82	305.82	
495	49.24	305.81	305.81	305.81	
496	49.34	305.8	305.8	305.8	
497	49.44	305.78	305.78	305.78	
498	49.54	305.77	305.77	305.77	
499	49.64	305.76	305.76	305.76	
500	49.74	305.75	305.75	305.75	
501	49.84	305.74	305.74	305.74	
502	49.94	305.72	305.72	305.72	
503	50.04	305.71	305.71	305.71	
504	50.14	305.7	305.7	305.7	
505	50.24	305.69	305.69	305.69	
506	50.34	305.68	305.68	305.68	
507	50.44	305.67	305.67	305.67	
508	50.54	305.65	305.65	305.65	
509	50.64	305.64	305.64	305.64	
510	50.74	305.63	305.63	305.63	
511	50.84	305.62	305.62	305.62	
512	50.94	305.61	305.61	305.61	
513	51.04	305.59	305.59	305.59	
514	51.14	305.58	305.58	305.58	
515	51.24	305.57	305.57	305.57	
516	51.34	305.56	305.56	305.56	
517	51.44	305.55	305.55	305.55	
518	51.54	305.54	305.54	305.54	
519	51.64	305.52	305.52	305.52	
520	51.74	305.51	305.51	305.51	
521	51.84	305.5	305.5	305.5	
522	51.94	305.49	305.49	305.49	
523	52.04	305.48	305.48	305.48	
524	52.14	305.46	305.46	305.46	
525	52.24	305.45	305.45	305.45	
526	52.34	305.44	305.44	305.44	
527	52.44	305.43	305.43	305.43	
528	52.54	305.42	305.42	305.42	
529	52.64	305.41	305.41	305.41	
530	52.74	305.39	305.39	305.39	
531	52.84	305.38	305.38	305.38	
532	52.94	305.37	305.37	305.37	
533	53.04	305.36	305.36	305.36	
534	53.14	305.35	305.35	305.35	
535	53.24	305.34	305.34	305.34	
536	53.34	305.32	305.32	305.32	
537	53.44	305.31	305.31	305.31	
538	53.54	305.3	305.3	305.3	
539	53.64	305.29	305.29	305.29	
540	53.74	305.28	305.28	305.28	
541	53.84	305.27	305.27	305.27	
542	53.94	305.25	305.25	305.25	
543	54.04	305.24	305.24	305.24	
544	54.14	305.23	305.23	305.23	
545	54.24	305.22	305.22	305.22	
546	54.34	305.21	305.21	305.21	
547	54.44	305.2	305.2	305.2	
548	54.54	305.18	305.18	305.18	
549	54.64	305.17	305.17	305.17	
550	54.74	305.16	305.16	305.16	
551	54.84	305.15	305.15	305.15	
552	54.94	305.14	305.14	305.14	
553	55.04	305.13	305.13	305.13	
554	55.14	305.12	305.12	305.12	
555	55.24	305.1	305.1	305.1	
556	55.34	305.09	305.09	305.09	
557	55.44	305.08	305.08	305.08	
558	55.54	305.07	305.07	305.07	
559	55.64	305.06	305.06	305.06	
560	55.74	305.05	305.05	305.05	
561	55.84	305.03	305.03	305.03	
562	55.94	305.02	305.02	305.02	
563	56.04	305.01	305.01	305.01	
564	56.14	305.	305.	305.	
565	56.24	304.99	304.99	304.99	
566	56.34	304.98	304.98	304.98	
567	56.44	304.97	304.97	304.97	
568	56.54	304.95	304.95	304.95	
569	56.64	304.94	304.94	304.94	
570	56.74	304.93	304.93	304.93	
571	56.84	304.92	304.92	304.92	
572	56.94	304.91	304.91	304.91	
573	57.04	304.9	304.9	304.9	
574	57.14	304.89	304.89	304.89	
575	57.24	304.88	304.88	304.88	
576	57.34	304.86	304.86	304.86	
577	57.44	304.85	304.85	304.85	
578	57.54	304.84	304.84	304.84	
579	57.64	304.83	304.83	304.83	
580	57.74	304.82	304.82	304.82	
581	57.84	304.81	304.81	304.81	
582	57.94	304.8	304.8	304.8	
583	58.04	304.78	304.78	304.78	
584	58.14	304.77	304.77	304.77	
585	58.24	304.76	304.76	304.76	
586	58.34	304.75	304.75	304.75	
587	58.44	304.74	304.74	304.74	
588	58.54	304.73	304.73	304.73	
589	58.64	304.72	304.72	304.72	
590	58.74	304.71	304.71	304.71	
591	58.84	304.69	304.69	304.69	
592	58.94	304.68	304.68	304.68	
593	59.04	304.67	304.67	304.67	
594	59.14	304.66	304.66	304.66	
595	59.24	304.65	304.65	304.65	
596	59.34	304.64	304.64	304.64	
597	59.44	304.63	304.63	304.63	
598	59.54	304.62	304.62	304.62	
599	59.64	304.6	304.6	304.6	
600	59.74	304.59	304.59	304.59	
601	59.84	304.58	304.58	304.58	
602	59.94	304.57	304.57	304.57	
603	60.04	304.56	304.56	304.56	
604	60.14	304.55	304.55	304.55	
605	60.24	304.54	304.54	304.54	
606	60.34	304.53	304.53	304.53	
607	60.44	304.52	304.52	304.52	
608	60.54	304.5	304.5	304.5	
609	60.64	304.49	304.49	304.49	
610	60.74	304.48	304.48	304.48	
611	60.84	304.47	304.47	304.47	
612	60.94	304.46	304.46	304.46	
613	61.04	304.45	304.45	304.45	
614	61.14	304.44	304.44	304.44	
615	61.24	304.43	304.43	304.43	
616	61.34	304.42	304.42	304.42	
